 $SEQPAR
 ECHOT=30.000000
 HZPPM=123.220000
 SEQ='PRESS'
 $END
 $NMID
 ID=''
 FMTDAT='(f16.3)'
 VOLUME=1.000000
 TRAMP=1.000000
 $END
 1.161776
 -0.002929
 0.608121
 0.874676
 -0.284212
 0.902413
 -0.737910
 0.130719
 -0.335135
 -0.656653
 0.516368
 -0.682617
 0.975893
 0.077562
 0.582760
 0.888706
 -0.301617
 0.978966
 -0.847625
 0.282315
 -0.560871
 -0.513758
 0.244506
 -0.645828
 0.758839
 -0.010099
 0.466992
 0.752448
 -0.355427
 0.889289
 -0.919343
 0.263676
 -0.695033
 -0.525905
 0.077789
 -0.736742
 0.635817
 -0.199832
 0.442733
 0.529769
 -0.295049
 0.723864
 -0.844834
 0.187702
 -0.670222
 -0.563002
 0.053908
 -0.814738
 0.628392
 -0.348874
 0.518881
 0.358764
 -0.133717
 0.613464
 -0.669192
 0.177360
 -0.559555
 -0.512401
 0.086818
 -0.782669
 0.648364
 -0.379809
 0.602253
 0.296795
 0.022401
 0.597225
 -0.509893
 0.253594
 -0.478405
 -0.373574
 0.075399
 -0.661164
 0.608549
 -0.330857
 0.611418
 0.293600
 0.095324
 0.615632
 -0.432919
 0.346779
 -0.470909
 -0.226533
 -0.002591
 -0.536315
 0.500250
 -0.286968
 0.545562
 0.269982
 0.095130
 0.594771
 -0.411665
 0.386261
 -0.494821
 -0.137159
 -0.096744
 -0.464081
 0.376076
 -0.290056
 0.459978
 0.197625
 0.082363
 0.516598
 -0.382445
 0.362507
 -0.489580
 -0.105200
 -0.153538
 -0.432760
 0.284235
 -0.317938
 0.400223
 0.106117
 0.097759
 0.415608
 -0.314933
 0.314030
 -0.437449
 -0.088875
 -0.163650
 -0.399291
 0.230669
 -0.328486
 0.368280
 0.035799
 0.134257
 0.330495
 -0.227397
 0.276937
 -0.363195
 -0.057331
 -0.151609
 -0.340172
 0.192664
 -0.304786
 0.339230
 -0.000375
 0.161748
 0.271306
 -0.152222
 0.256323
 -0.295611
 -0.012937
 -0.140216
 -0.264668
 0.150766
 -0.259317
 0.293961
 -0.014977
 0.162397
 0.225021
 -0.102622
 0.236323
 -0.242104
 0.024895
 -0.133178
 -0.193298
 0.102941
 -0.210548
 0.232859
 -0.023540
 0.140688
 0.177663
 -0.070748
 0.203335
 -0.194341
 0.043534
 -0.123036
 -0.136355
 0.057705
 -0.165980
 0.167684
 -0.031285
 0.110291
 0.126013
 -0.045036
 0.156393
 -0.144779
 0.044062
 -0.103694
 -0.091840
 0.023384
 -0.123578
 0.108876
 -0.035459
 0.079753
 0.075023
 -0.021794
 0.102707
 -0.092912
 0.033822
 -0.073752
 -0.054451
 0.003711
 -0.079724
 0.059882
 -0.031634
 0.049229
 0.031471
 -0.003847
 0.049945
 -0.041715
 0.018496
 -0.034723
 -0.021448
 -0.002523
 -0.032681
 0.018047
 -0.016702
 0.014764
 -0.000125
 0.004982
 0.001927
 0.005503
 -0.000402
 0.009524
 0.006895
 -0.000237
 0.017095
 -0.021266
 0.009387
 -0.026556
 -0.019867
 0.002797
 -0.042348
 0.045659
 -0.024758
 0.054100
 0.028100
 0.006169
 0.066399
 -0.059339
 0.042573
 -0.073296
 -0.032003
 -0.009336
 -0.086280
 0.077531
 -0.057086
 0.097231
 0.039223
 0.017663
 0.110823
 -0.091671
 0.077916
 -0.120040
 -0.039728
 -0.027889
 -0.130229
 0.102956
 -0.096369
 0.141520
 0.040390
 0.038962
 0.149314
 -0.112760
 0.115323
 -0.162668
 -0.040142
 -0.050666
 -0.168783
 0.123228
 -0.137072
 0.187995
 0.035665
 0.070213
 0.185170
 -0.124033
 0.158975
 -0.203794
 -0.027814
 -0.080754
 -0.196564
 0.134411
 -0.175310
 0.230742
 0.027117
 0.103553
 0.219057
 -0.133412
 0.208264
 -0.249558
 -0.004875
 -0.122909
 -0.217207
 0.131107
 -0.215880
 0.262996
 0.008710
 0.132966
 0.242956
 -0.143221
 0.252866
 -0.298037
 0.017199
 -0.173166
 -0.241372
 0.117291
 -0.267776
 0.289437
 -0.027936
 0.166309
 0.247818
 -0.141288
 0.283749
 -0.334293
 0.032002
 -0.216251
 -0.270792
 0.107691
 -0.328523
 0.325005
 -0.078131
 0.219214
 0.239676
 -0.112253
 0.309635
 -0.344796
 0.052810
 -0.241328
 -0.287533
 0.110185
 -0.377350
 0.373975
 -0.120162
 0.291304
 0.240639
 -0.061500
 0.353319
 -0.339166
 0.102824
 -0.261533
 -0.269207
 0.107468
 -0.394048
 0.413526
 -0.136979
 0.354335
 0.263692
 -0.020357
 0.422534
 -0.349044
 0.183639
 -0.308028
 -0.220251
 0.067791
 -0.388431
 0.410979
 -0.143867
 0.376933
 0.286854
 -0.015293
 0.487740
 -0.393873
 0.259305
 -0.393607
 -0.180259
 -0.016021
 -0.401591
 0.365343
 -0.183286
 0.366335
 0.265645
 -0.029333
 0.503430
 -0.447314
 0.286500
 -0.484060
 -0.186871
 -0.103018
 -0.463945
 0.323732
 -0.278706
 0.374963
 0.183522
 -0.006360
 0.461523
 -0.451326
 0.267861
 -0.520897
 -0.225633
 -0.136022
 -0.549699
 0.339371
 -0.394064
 0.449100
 0.086051
 0.091080
 0.416403
 -0.377653
 0.265287
 -0.485355
 -0.228872
 -0.107488
 -0.587104
 0.405899
 -0.455273
 0.567108
 0.047124
 0.227326
 0.438307
 -0.273476
 0.342190
 -0.434736
 -0.141715
 -0.085087
 -0.530507
 0.445349
 -0.427307
 0.643049
 0.088199
 0.312651
 0.532119
 -0.228403
 0.485979
 -0.456196
 0.007231
 -0.151949
 -0.422736
 0.380962
 -0.366900
 0.609913
 0.138031
 0.293081
 0.612798
 -0.281046
 0.600966
 -0.571465
 0.115950
 -0.311685
 -0.368630
 0.228025
 -0.379475
 0.501752
 0.092916
 0.220600
 0.581750
 -0.362305
 0.597693
 -0.695031
 0.107706
 -0.464020
 -0.429491
 0.098121
 -0.508586
 0.436880
 -0.070909
 0.216337
 0.436253
 -0.350716
 0.494679
 -0.707395
 0.021954
 -0.495311
 -0.544935
 0.093626
 -0.673155
 0.501547
 -0.253526
 0.347806
 0.291198
 -0.198390
 0.417270
 -0.581430
 -0.008848
 -0.401419
 -0.577671
 0.193554
 -0.734119
 0.649287
 -0.319234
 0.544804
 0.272734
 0.003327
 0.477226
 -0.427188
 0.110108
 -0.308669
 -0.451525
 0.258473
 -0.636557
 0.731646
 -0.237861
 0.654351
 0.383723
 0.101603
 0.649724
 -0.392374
 0.327620
 -0.354502
 -0.242443
 0.165764
 -0.479616
 0.644192
 -0.129615
 0.592874
 0.486168
 0.036709
 0.783074
 -0.509504
 0.482643
 -0.541781
 -0.116107
 -0.057662
 -0.428187
 0.441742
 -0.152885
 0.440917
 0.433083
 -0.086404
 0.745353
 -0.650541
 0.461732
 -0.722492
 -0.163251
 -0.249185
 -0.545758
 0.295309
 -0.340950
 0.372623
 0.221719
 -0.094675
 0.563100
 -0.647815
 0.319907
 -0.739652
 -0.300345
 -0.268282
 -0.721088
 0.323965
 -0.558194
 0.481941
 0.006554
 0.078122
 0.404061
 -0.464822
 0.233746
 -0.587762
 -0.345962
 -0.140780
 -0.772898
 0.471004
 -0.629710
 0.682391
 -0.050039
 0.317796
 0.412992
 -0.239828
 0.326342
 -0.424159
 -0.202281
 -0.037876
 -0.631800
 0.555910
 -0.516655
 0.788368
 0.059193
 0.438893
 0.565157
 -0.151550
 0.540999
 -0.414107
 0.043236
 -0.106222
 -0.412851
 0.453900
 -0.357108
 0.699610
 0.177684
 0.368845
 0.689157
 -0.241423
 0.695324
 -0.565814
 0.202804
 -0.320977
 -0.302048
 0.221002
 -0.328449
 0.501035
 0.141473
 0.219253
 0.637725
 -0.373938
 0.662359
 -0.723756
 0.174444
 -0.511600
 -0.371962
 0.037266
 -0.471471
 0.376511
 -0.058404
 0.172081
 0.432865
 -0.374494
 0.494338
 -0.725580
 0.039632
 -0.532245
 -0.514085
 0.027822
 -0.654318
 0.426188
 -0.271171
 0.298855
 0.239601
 -0.202129
 0.365455
 -0.560885
 -0.023864
 -0.402208
 -0.552685
 0.144335
 -0.708139
 0.573238
 -0.339124
 0.496030
 0.199921
 0.016786
 0.396921
 -0.373583
 0.079997
 -0.277800
 -0.419177
 0.222296
 -0.592153
 0.648920
 -0.249312
 0.595430
 0.298116
 0.120354
 0.543655
 -0.313678
 0.278056
 -0.292646
 -0.211032
 0.147759
 -0.423456
 0.561603
 -0.134649
 0.530042
 0.388434
 0.067985
 0.650690
 -0.394280
 0.411299
 -0.432177
 -0.085384
 -0.037792
 -0.352149
 0.377779
 -0.134261
 0.388385
 0.346111
 -0.033249
 0.611053
 -0.493084
 0.393706
 -0.562010
 -0.105071
 -0.191684
 -0.416553
 0.243480
 -0.261134
 0.314358
 0.183768
 -0.046324
 0.462026
 -0.483221
 0.284841
 -0.567961
 -0.191145
 -0.215296
 -0.520734
 0.238307
 -0.404461
 0.365597
 0.023886
 0.063162
 0.332877
 -0.353154
 0.215349
 -0.460346
 -0.215697
 -0.140015
 -0.542020
 0.310587
 -0.449173
 0.471709
 -0.029651
 0.208809
 0.312049
 -0.201785
 0.255166
 -0.346887
 -0.128246
 -0.078815
 -0.449127
 0.345490
 -0.383223
 0.519228
 0.015402
 0.281617
 0.372008
 -0.130522
 0.358440
 -0.318174
 0.009556
 -0.108511
 -0.316860
 0.281995
 -0.292064
 0.463706
 0.065782
 0.253751
 0.414904
 -0.150371
 0.425859
 -0.367851
 0.099595
 -0.205362
 -0.239534
 0.159839
 -0.263074
 0.358186
 0.044277
 0.188725
 0.375912
 -0.189455
 0.405632
 -0.417255
 0.103169
 -0.285969
 -0.241953
 0.064105
 -0.305682
 0.285969
 -0.042537
 0.165156
 0.276214
 -0.175739
 0.330902
 -0.402252
 0.063296
 -0.295437
 -0.272039
 0.038968
 -0.359453
 0.279215
 -0.127946
 0.202451
 0.185474
 -0.102622
 0.271151
 -0.328464
 0.047368
 -0.250523
 -0.265635
 0.057807
 -0.364912
 0.302555
 -0.159101
 0.257467
 0.148182
 -0.019742
 0.261556
 -0.249977
 0.080791
 -0.207172
 -0.207521
 0.065132
 -0.317178
 0.302341
 -0.140864
 0.279124
 0.150911
 0.025388
 0.281059
 -0.209011
 0.135217
 -0.200416
 -0.132789
 0.034144
 -0.256365
 0.259870
 -0.115737
 0.256163
 0.150870
 0.028662
 0.287217
 -0.202286
 0.168577
 -0.219477
 -0.082147
 -0.017520
 -0.219566
 0.198274
 -0.115092
 0.215677
 0.122935
 0.019902
 0.260386
 -0.198132
 0.166177
 -0.231592
 -0.064738
 -0.056881
 -0.209414
 0.149651
 -0.135039
 0.187613
 0.076404
 0.025718
 0.213991
 -0.173995
 0.144891
 -0.218351
 -0.060612
 -0.069429
 -0.203597
 0.124586
 -0.151955
 0.178123
 0.035352
 0.047301
 0.172041
 -0.133473
 0.127950
 -0.187108
 -0.048481
 -0.065065
 -0.183772
 0.111225
 -0.150515
 0.173305
 0.012712
 0.068663
 0.145225
 -0.093950
 0.122909
 -0.155352
 -0.024973
 -0.060253
 -0.150596
 0.094520
 -0.133951
 0.159358
 0.003968
 0.077145
 0.127673
 -0.066585
 0.121623
 -0.132115
 -0.000691
 -0.061434
 -0.115898
 0.070636
 -0.113728
 0.134680
 -0.001409
 0.072876
 0.109270
 -0.049870
 0.113942
 -0.114545
 0.014639
 -0.064257
 -0.088083
 0.045448
 -0.096515
 0.106231
 -0.008577
 0.063083
 0.086133
 -0.036992
 0.097362
 -0.096316
 0.019958
 -0.062463
 -0.067109
 0.025407
 -0.081595
 0.080279
 -0.016039
 0.053055
 0.061022
 -0.024134
 0.075895
 -0.074830
 0.019613
 -0.053979
 -0.049291
 0.012452
 -0.065897
 0.058359
 -0.020348
 0.043360
 0.038362
 -0.011909
 0.054218
 -0.051504
 0.017198
 -0.040409
 -0.032540
 0.005146
 -0.047890
 0.039085
 -0.019424
 0.032314
 0.020725
 -0.002508
 0.034331
 -0.028898
 0.013416
 -0.024271
 -0.017025
 0.001396
 -0.027693
 0.020856
 -0.013017
 0.018496
 0.008253
 0.002416
 0.015811
 -0.008999
 0.007397
 -0.007520
 -0.003714
 -0.000189
 -0.006359
 0.003018
 -0.002480
 0.001597
 -0.000597
 0.002330
 -0.002648
 0.007300
 -0.001809
 0.009046
 0.006262
