 $SEQPAR
 ECHOT = 30.000000
 HZPPM = 123.220000
 SEQ = 'PRESS'
 $END
 $NMID
 ID ='Cr'
 FMTDAT ='(f16.3)'
 VOLUME = 1.000000
 TRAMP = 1.000000
 $END
 2.000000
 0.000000
 1.684742
 0.776366
 1.300514
 1.367630
 0.720488
 1.688798
 0.016207
 1.696410
 -0.636856
 1.411439
 -1.051328
 0.917468
 -1.136128
 0.345553
 -0.931731
 -0.157014
 -0.558045
 -0.467708
 -0.142285
 -0.523478
 0.209425
 -0.335096
 0.403802
 0.021271
 0.365725
 0.427187
 0.075916
 0.751052
 -0.396635
 0.878927
 -0.911010
 0.744135
 -1.313219
 0.348273
 -1.490370
 -0.235678
 -1.388323
 -0.881763
 -1.005899
 -1.444308
 -0.394184
 -1.793845
 0.337695
 -1.846365
 1.035791
 -1.582015
 1.545896
 -1.051175
 1.766221
 -0.364893
 1.673497
 0.331248
 1.314038
 0.893985
 0.780898
 1.217968
 0.196310
 1.259103
 -0.305407
 1.041219
 -0.608322
 0.647639
 -0.653556
 0.200503
 -0.461254
 -0.169360
 -0.118899
 -0.356630
 0.253516
 -0.310077
 0.537354
 -0.045731
 0.637196
 0.359202
 0.498287
 0.787801
 0.125398
 1.112813
 -0.407680
 1.227575
 -0.973776
 1.073278
 -1.431539
 0.656415
 -1.667186
 0.049931
 -1.619304
 -0.624133
 -1.285777
 -1.225279
 -0.722989
 -1.628527
 -0.039825
 -1.752730
 0.621997
 -1.578276
 1.124642
 -1.151714
 1.374309
 -0.575426
 1.344434
 0.017308
 1.074084
 0.496207
 0.651078
 0.766589
 0.191515
 0.790869
 -0.182916
 0.594582
 -0.373904
 0.257687
 -0.336493
 -0.105844
 -0.094719
 -0.376812
 0.267735
 -0.462335
 0.635902
 -0.321562
 0.894975
 0.023003
 0.955028
 0.491907
 0.770049
 0.969541
 0.352906
 1.332473
 -0.220756
 1.478926
 -0.828668
 1.354179
 -1.335985
 0.966081
 -1.632091
 0.385200
 -1.655273
 -0.271988
 -1.402035
 -0.872088
 -0.926363
 -1.296769
 -0.330840
 -1.469309
 0.254270
 -1.370885
 0.704210
 -1.044229
 0.934352
 -0.583194
 0.920850
 -0.109082
 0.700602
 0.260954
 0.356525
 0.443928
 -0.003020
 0.410521
 -0.267885
 0.189944
 -0.353323
 -0.139053
 -0.225519
 -0.468102
 0.086226
 -0.686556
 0.498426
 -0.710865
 0.898889
 -0.507995
 1.176310
 -0.105196
 1.245067
 0.416841
 1.064076
 0.944254
 0.649476
 1.357156
 0.075872
 1.557575
 -0.539837
 1.493069
 -1.069496
 1.170758
 -1.407247
 0.656818
 -1.493028
 0.060230
 -1.322346
 -0.494683
 -0.945292
 -0.898211
 -0.456617
 -1.079934
 0.025128
 -1.023447
 0.388116
 -0.769122
 0.558029
 -0.403737
 0.516441
 -0.037940
 0.301004
 0.223277
 -0.008238
 0.308268
 -0.309098
 0.196290
 -0.500630
 -0.078818
 -0.508602
 -0.437964
 -0.307894
 -0.776203
 0.067718
 -0.988738
 0.534459
 -0.998386
 0.982252
 -0.777089
 1.302696
 -0.354387
 1.413255
 0.189779
 1.275337
 0.744725
 0.905359
 1.194968
 0.374464
 1.446519
 -0.207407
 1.448878
 -0.720216
 1.207693
 -1.064670
 0.783838
 -1.184301
 0.277690
 -1.074883
 -0.196756
 -0.783159
 -0.539937
 -0.396396
 -0.689408
 -0.022109
 -0.633019
 0.240220
 -0.410774
 0.326819
 -0.104522
 0.225959
 0.183571
 -0.022138
 0.358690
 -0.338428
 0.358979
 -0.624842
 0.171317
 -0.787042
 -0.166112
 -0.758293
 -0.573433
 -0.519428
 -0.947948
 -0.106827
 -1.188888
 0.396493
 -1.223163
 0.883188
 -1.025244
 1.248094
 -0.624552
 1.411452
 -0.098083
 1.336061
 0.448583
 1.037033
 0.905911
 0.580486
 1.185072
 0.068097
 1.238268
 -0.389570
 1.070225
 -0.701509
 0.736778
 -0.816759
 0.329818
 -0.733147
 -0.047231
 -0.495575
 -0.305495
 -0.185367
 -0.391451
 0.099386
 -0.298564
 0.270036
 -0.068276
 0.272482
 0.220345
 0.101661
 0.471163
 -0.199016
 0.597064
 -0.550456
 0.543685
 -0.857162
 0.303639
 -1.029265
 -0.081889
 -1.004910
 -0.532937
 -0.768247
 -0.949048
 -0.356032
 -1.232799
 0.151242
 -1.314003
 0.650411
 -1.168110
 1.040714
 -0.822697
 1.245871
 -0.350043
 1.230216
 0.151123
 1.007254
 0.578867
 0.637691
 0.851056
 0.214517
 0.924036
 -0.161848
 0.802934
 -0.409758
 0.539853
 -0.485221
 0.219314
 -0.389746
 -0.064899
 -0.168187
 -0.234057
 0.102112
 -0.243472
 0.330259
 -0.092678
 0.436266
 0.174426
 0.373920
 0.479928
 0.143674
 0.731663
 -0.208423
 0.847830
 -0.603226
 0.779153
 -0.947242
 0.521678
 -1.153826
 0.117643
 -1.164224
 -0.354400
 -0.963900
 -0.797201
 -0.588050
 -1.117101
 -0.112876
 -1.246739
 0.364324
 -1.162107
 0.748754
 -0.888241
 0.968953
 -0.491812
 0.991783
 -0.063652
 0.829958
 0.303086
 0.539439
 0.534261
 0.205119
 0.591829
 -0.082387
 0.482926
 -0.250909
 0.257682
 -0.264008
 -0.004938
 -0.127899
 -0.219058
 0.111245
 -0.314599
 0.378242
 -0.254605
 0.587198
 -0.044093
 0.664414
 0.270545
 0.569344
 0.611880
 0.306094
 0.890430
 -0.078050
 1.028017
 -0.504842
 0.978435
 -0.883194
 0.739105
 -1.129515
 0.351307
 -1.187429
 -0.109592
 -1.042674
 -0.551018
 -0.727730
 -0.884213
 -0.313259
 -1.045471
 0.110608
 -1.011873
 0.456455
 -0.806259
 0.659060
 -0.489810
 0.689211
 -0.145400
 0.560182
 0.142922
 0.324632
 0.309623
 0.060769
 0.323193
 -0.149350
 0.194120
 -0.242155
 -0.027798
 -0.188354
 -0.267205
 0.001056
 -0.444067
 0.277989
 -0.494932
 0.568275
 -0.388771
 0.789344
 -0.134671
 0.871753
 0.219375
 0.778505
 0.596726
 0.515364
 0.910316
 0.129056
 1.084791
 -0.304559
 1.075864
 -0.697943
 0.880918
 -0.971237
 0.538782
 -1.070719
 0.120109
 -0.982396
 -0.288644
 -0.735806
 -0.604964
 -0.395745
 -0.770039
 -0.044591
 -0.763214
 0.238401
 -0.606228
 0.395264
 -0.355786
 0.401907
 -0.087652
 0.273575
 0.122605
 0.061281
 0.217758
 -0.161627
 0.172963
 -0.319834
 0.002645
 -0.356762
 -0.242617
 -0.249010
 -0.489536
 -0.011528
 -0.662056
 0.306000
 -0.701314
 0.630158
 -0.580189
 0.880867
 -0.310015
 0.991659
 0.061109
 0.927534
 0.458383
 0.694276
 0.797754
 0.336437
 1.006844
 -0.074077
 1.043062
 -0.454658
 0.903278
 -0.730345
 0.623152
 -0.851028
 0.267792
 -0.803729
 -0.083402
 -0.615741
 -0.355205
 -0.346510
 -0.494849
 -0.071019
 -0.485232
 0.139601
 -0.348400
 0.234884
 -0.138081
 0.196452
 0.075587
 0.042505
 0.224138
 -0.176219
 0.257533
 -0.389502
 0.156850
 -0.526861
 -0.059807
 -0.536800
 -0.340800
 -0.400080
 -0.614107
 -0.134146
 -0.806394
 0.210783
 -0.861819
 0.562620
 -0.755433
 0.843836
 -0.499062
 0.990545
 -0.139293
 0.969034
 0.252317
 0.784197
 0.595828
 0.477356
 0.822674
 0.115339
 0.892548
 -0.225356
 0.802150
 -0.475831
 0.584161
 -0.590709
 0.298171
 -0.559218
 0.016338
 -0.407603
 -0.193776
 -0.191170
 -0.286090
 0.021414
 -0.247991
 0.166257
 -0.103072
 0.199823
 0.096410
 0.109246
 0.284259
 -0.084079
 0.397382
 -0.328938
 0.391289
 -0.557035
 0.251589
 -0.701163
 -0.000936
 -0.713200
 -0.314120
 -0.576290
 -0.617235
 -0.308732
 -0.839233
 0.040161
 -0.926467
 0.400752
 -0.855069
 0.698809
 -0.636101
 0.873428
 -0.313332
 0.892318
 0.046176
 0.759384
 0.367788
 0.512475
 0.587836
 0.212899
 0.669309
 -0.069534
 0.609698
 -0.272715
 0.439575
 -0.356905
 0.213775
 -0.314631
 -0.002145
 -0.172391
 -0.147888
 0.017174
 -0.183972
 0.190202
 -0.102552
 0.288608
 0.070530
 0.274546
 0.283394
 0.139728
 0.472357
 -0.091771
 0.578040
 -0.368294
 0.559779
 -0.622994
 0.406072
 -0.791066
 0.138941
 -0.826560
 -0.190017
 -0.713689
 -0.512077
 -0.470162
 -0.758814
 -0.143004
 -0.878739
 0.201844
 -0.848759
 0.494515
 -0.678650
 0.677966
 -0.408705
 0.722062
 -0.100724
 0.630346
 0.176796
 0.437675
 0.366018
 0.200189
 0.434246
 -0.018838
 0.380874
 -0.164148
 0.235591
 -0.201958
 0.049728
 -0.128740
 -0.116556
 0.027750
 -0.209163
 0.216237
 -0.194394
 0.376144
 -0.068733
 0.453591
 0.139747
 0.414866
 0.379103
 0.254861
 0.587304
 -0.000761
 0.707513
 -0.300598
 0.701460
 -0.579524
 0.559043
 -0.775003
 0.302088
 -0.842821
 -0.019676
 -0.767541
 -0.340609
 -0.565443
 -0.595712
 -0.280314
 -0.736282
 0.026595
 -0.740369
 0.290745
 -0.616690
 0.459925
 -0.402126
 0.507120
 -0.153150
 0.436534
 0.068115
 0.281026
 0.210080
 0.092513
 0.245020
 -0.071438
 0.175145
 -0.161779
 0.030389
 -0.150327
 -0.140079
 -0.037497
 -0.280054
 0.147282
 -0.340199
 0.353287
 -0.291307
 0.522076
 -0.133155
 0.602607
 0.104623
 0.563800
 0.370281
 0.402266
 0.603285
 0.143914
 0.748792
 -0.161198
 0.770134
 -0.450457
 0.657588
 -0.664085
 0.431686
 -0.759847
 0.139198
 -0.722666
 -0.158362
 -0.567231
 -0.400403
 -0.333766
 -0.541878
 -0.078410
 -0.562813
 0.140172
 -0.471612
 0.275265
 -0.302444
 0.303831
 -0.107034
 0.231731
 0.058425
 0.090991
 0.148376
 -0.069457
 0.140126
 -0.196510
 0.039094
 -0.246183
 -0.123792
 -0.194944
 -0.300477
 -0.046519
 -0.437405
 0.168232
 -0.488577
 0.398963
 -0.427823
 0.588819
 -0.256901
 0.688724
 -0.005913
 0.669170
 0.274375
 0.527274
 0.525378
 0.287989
 0.694389
 -0.001096
 0.746185
 -0.280855
 0.671057
 -0.495107
 0.487738
 -0.604268
 0.239427
 -0.594211
 -0.017175
 -0.478467
 -0.226633
 -0.294045
 -0.348364
 -0.092174
 -0.365269
 0.074296
 -0.286418
 0.164299
 -0.144291
 0.159167
 0.013092
 0.067111
 0.134507
 -0.079721
 0.179620
 -0.234207
 0.130228
 -0.346397
 -0.005259
 -0.376014
 -0.194760
 -0.302908
 -0.390802
 -0.133042
 -0.541623
 0.102063
 -0.603445
 0.352856
 -0.551919
 0.564146
 -0.389502
 0.688599
 -0.145602
 0.697770
 0.131012
 0.588619
 0.384523
 0.384357
 0.564960
 0.129282
 0.638956
 -0.121793
 0.597078
 -0.317099
 0.456358
 -0.420533
 0.256412
 -0.419746
 0.049007
 -0.327947
 -0.115848
 -0.179733
 -0.202489
 -0.022176
 -0.197334
 0.097059
 -0.110967
 0.142115
 0.024784
 0.098535
 0.164438
 -0.022961
 0.260517
 -0.189599
 0.276747
 -0.355258
 0.198410
 -0.472080
 0.036173
 -0.502279
 -0.177145
 -0.427807
 -0.394713
 -0.255667
 -0.566279
 -0.017005
 -0.649719
 0.240236
 -0.621707
 0.463085
 -0.484526
 0.606256
 -0.265934
 0.642484
 -0.011784
 0.568484
 0.225724
 0.405501
 0.400147
 0.194236
 0.480695
 -0.015226
 0.458846
 -0.176039
 0.350557
 -0.256221
 0.192387
 -0.245968
 0.031600
 -0.159075
 -0.086940
 -0.028720
 -0.132410
 0.101133
 -0.094919
 0.186985
 0.012967
 0.197287
 0.159330
 0.121109
 0.300238
 -0.028699
 0.390807
 -0.218786
 0.397593
 -0.403744
 0.308191
 -0.537217
 0.134480
 -0.583080
 -0.090793
 -0.524416
 -0.321970
 -0.368236
 -0.510572
 -0.144313
 -0.616112
 0.101910
 -0.616087
 0.320460
 -0.512203
 0.468747
 -0.330090
 0.521209
 -0.112137
 0.474732
 0.093690
 0.348930
 0.245130
 0.181116
 0.314678
 0.016772
 0.295527
 -0.102213
 0.203367
 -0.148203
 0.072584
