 $SEQPAR
 ECHOT=3.000000
 HZPPM=500.307370
 SEQ='STEAM'
 $END
 $NMID
 ID=''
 FMTDAT='(f16.3)'
 VOLUME=1.000000
 TRAMP=1.000000
 $END
 0.051000
 0.000016
 0.034756
 0.033257
 0.003952
 0.043046
 -0.023754
 0.029272
 -0.027812
 0.000736
 -0.010423
 -0.012897
 0.006328
 -0.007648
 0.009288
 0.011538
 -0.011205
 0.022131
 -0.031770
 0.008525
 -0.036715
 -0.019065
 -0.014746
 -0.045790
 0.021450
 -0.044414
 0.044606
 -0.019418
 0.043983
 0.015775
 0.016619
 0.035904
 -0.009625
 0.028525
 -0.020015
 0.008201
 -0.008033
 -0.009988
 0.010946
 -0.004267
 0.013286
 0.014229
 -0.002858
 0.030062
 -0.031938
 0.023896
 -0.044454
 -0.005991
 -0.032035
 -0.036315
 0.001558
 -0.050534
 0.033840
 -0.032798
 0.041018
 -0.001874
 0.026074
 0.023091
 -0.001162
 0.025020
 -0.012233
 0.006550
 -0.004089
 -0.008272
 0.014869
 -0.008201
 0.023776
 0.014036
 0.007287
 0.034582
 -0.021343
 0.036913
 -0.046796
 0.013451
 -0.043597
 -0.023052
 -0.017122
 -0.044143
 0.016464
 -0.041436
 0.034410
 -0.014081
 0.024911
 0.010457
 0.005116
 0.017476
 -0.010319
 0.004368
 -0.002064
 -0.013933
 0.017837
 -0.013407
 0.031809
 0.005059
 0.023577
 0.034077
 -0.007893
 0.045165
 -0.037322
 0.030346
 -0.049249
 -0.003061
 -0.030409
 -0.033808
 0.000114
 -0.038413
 0.022001
 -0.022549
 0.021819
 0.002854
 0.002746
 0.011270
 -0.009956
 0.000481
 -0.006842
 -0.017888
 0.016639
 -0.024879
 0.036783
 -0.005904
 0.036494
 0.023318
 0.011912
 0.047019
 -0.024212
 0.042124
 -0.043021
 0.014658
 -0.038295
 -0.016831
 -0.011496
 -0.032329
 0.010981
 -0.021064
 0.014658
 -0.002106
 0.000709
 0.010308
 -0.016487
 -0.000202
 -0.013225
 -0.021073
 0.007236
 -0.032969
 0.035618
 -0.022790
 0.045127
 0.009614
 0.028238
 0.037745
 -0.004465
 0.047204
 -0.033164
 0.027678
 -0.035322
 -0.001935
 -0.018830
 -0.020529
 0.004291
 -0.018326
 0.010041
 0.000862
 -0.003044
 0.011325
 -0.020498
 0.005275
 -0.025416
 -0.018927
 -0.004432
 -0.038300
 0.024913
 -0.035491
 0.046466
 -0.010194
 0.040054
 0.024889
 0.012123
 0.041282
 -0.016864
 0.034685
 -0.029742
 0.008950
 -0.017115
 -0.011181
 0.000722
 -0.011668
 0.009973
 0.002816
 -0.002452
 0.018535
 -0.023825
 0.012759
 -0.033520
 -0.009300
 -0.021581
 -0.036520
 0.011091
 -0.044353
 0.037570
 -0.025801
 0.044491
 0.005718
 0.024701
 0.031941
 -0.003524
 0.031857
 -0.018734
 0.015052
 -0.014667
 -0.005438
 0.004160
 -0.008595
 0.012343
 0.006359
 0.003574
 0.022621
 -0.020827
 0.025393
 -0.039093
 0.002932
 -0.033960
 -0.026067
 -0.008372
 -0.045177
 0.025067
 -0.037471
 0.038991
 -0.009613
 0.030744
 0.016569
 0.006521
 0.026750
 -0.011058
 0.013197
 -0.008618
 -0.003280
 0.006091
 -0.009349
 0.020028
 0.004606
 0.012038
 0.026007
 -0.011166
 0.033465
 -0.036770
 0.020015
 -0.042888
 -0.012274
 -0.023134
 -0.036809
 0.006776
 -0.041222
 0.030196
 -0.021582
 0.028138
 0.004831
 0.011347
 0.016691
 -0.006277
 0.010973
 -0.006993
 -0.007055
 0.009354
 -0.012992
 0.024203
 -0.001817
 0.024839
 0.022283
 0.001462
 0.039154
 -0.026743
 0.031976
 -0.043221
 0.006518
 -0.034474
 -0.024755
 -0.007215
 -0.036237
 0.015966
 -0.026619
 0.023469
 -0.004277
 0.009432
 0.010630
 -0.005493
 0.005617
 -0.008482
 -0.009017
 0.006590
 -0.020950
 0.027561
 -0.011104
 0.032833
 0.012764
 0.018168
 0.036382
 -0.013129
 0.040803
 -0.035499
 0.020340
 -0.037532
 -0.007605
 -0.018424
 -0.028007
 0.005827
 -0.024293
 0.014480
 -0.007832
 0.007369
 0.006807
 -0.009477
 0.005298
 -0.013272
 -0.011936
 -0.000082
 -0.025218
 0.023262
 -0.023810
 0.038509
 -0.000078
 0.029630
 0.026925
 0.004704
 0.040691
 -0.023982
 0.031177
 -0.033122
 0.005003
 -0.022453
 -0.015089
 -0.002273
 -0.020021
 0.009931
 -0.005928
 0.002767
 0.007312
 -0.011513
 0.007431
 -0.021309
 -0.008341
 -0.010007
 -0.028464
 0.014038
 -0.031676
 0.035398
 -0.016127
 0.038194
 0.013640
 0.017519
 0.033699
 -0.008189
 0.033560
 -0.025470
 0.015324
 -0.020444
 -0.006498
 -0.004608
 -0.012185
 0.007043
 -0.003969
 0.003580
 0.011385
 -0.014039
 0.013203
 -0.025666
 -0.001557
 -0.022375
 -0.023753
 0.001173
 -0.037214
 0.026621
 -0.027020
 0.037701
 -0.002993
 0.027698
 0.022797
 0.003037
 0.029757
 -0.013984
 0.018381
 -0.016531
 0.000547
 -0.002771
 -0.009007
 0.008708
 -0.000157
 0.006256
 0.013525
 -0.009807
 0.021139
 -0.028719
 0.008800
 -0.030067
 -0.014952
 -0.013977
 -0.033882
 0.013807
 -0.035171
 0.031486
 -0.014761
 0.029449
 0.008520
 0.012367
 0.022689
 -0.006851
 0.016704
 -0.009892
 0.001754
 -0.000871
 -0.007012
 0.012762
 -0.001904
 0.012819
 0.015621
 -0.003039
 0.025569
 -0.023766
 0.020620
 -0.035349
 -0.002254
 -0.024249
 -0.025861
 -0.001439
 -0.034372
 0.021267
 -0.024150
 0.026258
 -0.001357
 0.014520
 0.012703
 -0.000880
 0.013114
 -0.007914
 0.000028
 0.002142
 -0.009676
 0.015023
 -0.005023
 0.020498
 0.010956
 0.007537
 0.028361
 -0.015487
 0.028089
 -0.031916
 0.011804
 -0.031855
 -0.013648
 -0.012147
 -0.028951
 0.008607
 -0.025336
 0.019772
 -0.009623
 0.013173
 0.006906
 -0.000676
 0.007675
 -0.006752
 -0.001850
 -0.000330
 -0.013619
 0.016668
 -0.012165
 0.024975
 0.004311
 0.018636
 0.023332
 -0.003140
 0.033013
 -0.024692
 0.021413
 -0.030833
 0.000080
 -0.020642
 -0.019467
 0.000015
 -0.022734
 0.011305
 -0.010967
 0.009874
 0.002004
 -0.002264
 0.006709
 -0.010229
 -0.004080
 -0.003791
 -0.016003
 0.011769
 -0.019456
 0.027450
 -0.006269
 0.025836
 0.015645
 0.009685
 0.029596
 -0.013196
 0.028369
 -0.026189
 0.009740
 -0.021342
 -0.008469
 -0.007147
 -0.016825
 0.006700
 -0.009932
 0.005601
 0.002653
 -0.004142
 0.006309
 -0.013989
 -0.001094
 -0.011295
 -0.017193
 0.005339
 -0.023947
 0.022499
 -0.016514
 0.030318
 0.003818
 0.018603
 0.023178
 -0.001056
 0.027208
 -0.017481
 0.017270
 -0.019286
 -0.001074
 -0.007795
 -0.009846
 0.002834
 -0.006896
 0.005451
 0.004087
 -0.005627
 0.010401
 -0.016485
 0.002615
 -0.018098
 -0.012246
 -0.005043
 -0.026065
 0.015447
 -0.023401
 0.027023
 -0.007684
 0.024828
 0.012493
 0.007586
 0.023300
 -0.008135
 0.017574
 -0.013944
 0.004975
 -0.007039
 -0.006276
 0.004172
 -0.003724
 0.005733
 0.005976
 -0.002328
 0.013923
 -0.017230
 0.010266
 -0.022562
 -0.006102
 -0.014344
 -0.021329
 0.004286
 -0.027379
 0.021391
 -0.015898
 0.023612
 0.001958
 0.014110
 0.015393
 -0.001833
 0.016003
 -0.008382
 0.005053
 -0.004245
 -0.003392
 0.005451
 -0.004197
 0.010237
 0.006776
 0.001540
 0.016507
 -0.012401
 0.016509
 -0.024296
 0.003895
 -0.020878
 -0.014927
 -0.005855
 -0.024299
 0.011592
 -0.021341
 0.020376
 -0.005714
 0.014112
 0.007638
 0.003124
 0.011213
 -0.005685
 0.004531
 -0.002082
 -0.005249
 0.007348
 -0.005071
 0.013486
 0.003348
 0.009136
 0.016833
 -0.006597
 0.020901
 -0.019891
 0.012205
 -0.024311
 -0.004556
 -0.013362
 -0.019411
 0.002625
 -0.020146
 0.013282
 -0.011225
 0.012954
 0.002317
 0.002762
 0.006962
 -0.003710
 0.001966
 -0.002996
 -0.006382
 0.007538
 -0.009793
 0.016126
 -0.000599
 0.014779
 0.012264
 0.002853
 0.022245
 -0.014133
 0.018349
 -0.021521
 0.004235
 -0.018000
 -0.010547
 -0.004133
 -0.017503
 0.007019
 -0.011016
 0.008702
 -0.001596
 0.002425
 0.004979
 -0.005918
 0.000697
 -0.004370
 -0.008275
 0.004141
 -0.012753
 0.016069
 -0.007957
 0.019050
 0.006832
 0.010164
 0.018260
 -0.004645
 0.021220
 -0.017316
 0.011041
 -0.016891
 -0.003070
 -0.008653
 -0.011221
 0.002560
 -0.010192
 0.005625
 -0.000923
 0.000080
 0.003825
 -0.006923
 0.001889
 -0.009129
 -0.007941
 0.000185
 -0.015406
 0.011872
 -0.012988
 0.020011
 -0.001939
 0.015888
 0.013119
 0.002846
 0.018777
 -0.009414
 0.014880
 -0.014755
 0.002841
 -0.008322
 -0.006314
 -0.000379
 -0.006458
 0.004209
 -0.000716
 -0.000423
 0.006227
 -0.008791
 0.003669
 -0.011798
 -0.004706
 -0.006778
 -0.015015
 0.006831
 -0.017089
 0.016509
 -0.008276
 0.018201
 0.004579
 0.008965
 0.015180
 -0.003312
 0.013910
 -0.009269
 0.006419
 -0.007750
 -0.002604
 0.000486
 -0.004404
 0.003776
 0.001410
 0.000907
 0.007127
 -0.008028
 0.008305
 -0.014418
 -0.000802
 -0.011209
 -0.011269
 -0.001159
 -0.017689
 0.011944
 -0.013553
 0.016140
 -0.001697
 0.012036
 0.008247
 0.001820
 0.012189
 -0.005563
 0.006041
 -0.004514
 -0.000548
 0.000616
 -0.003421
 0.006231
 0.001283
 0.003002
 0.008941
 -0.005054
 0.010698
 -0.013750
 0.005640
 -0.015093
 -0.006623
 -0.006578
 -0.014705
 0.004389
 -0.015333
 0.013072
 -0.007150
 0.011245
 0.003379
 0.004527
 0.007475
 -0.002493
 0.005644
 -0.003319
 -0.001499
 0.002521
 -0.003604
 0.007053
 -0.000070
 0.007382
 0.007847
 -0.001253
 0.013237
 -0.010504
 0.009503
 -0.015367
 0.000518
 -0.011389
 -0.010668
 -0.000784
 -0.013671
 0.007093
 -0.009505
 0.009850
 -0.001045
 0.004166
 0.004799
 -0.001218
 0.002885
 -0.002655
 -0.001601
 0.001902
 -0.005991
 0.008784
 -0.002392
 0.009520
 0.005205
 0.004575
 0.012352
 -0.006247
 0.013126
 -0.012911
 0.005094
 -0.012678
 -0.004105
 -0.005598
 -0.011049
 0.003300
 -0.008918
 0.005873
 -0.002969
 0.003873
 0.002270
 -0.002164
 0.002382
 -0.003346
 -0.003282
 0.000612
 -0.006764
 0.007455
 -0.006411
 0.011930
 0.001547
 0.007916
 0.009624
 0.000008
 0.013120
 -0.009346
 0.009427
 -0.011411
 0.000093
 -0.007304
 -0.005990
 -0.000482
 -0.007765
 0.004049
 -0.002675
 0.001567
 0.001664
 -0.002283
 0.001943
 -0.005568
 -0.002305
 -0.001856
 -0.008377
 0.005182
 -0.008324
 0.010891
 -0.003605
 0.011241
 0.005744
 0.003834
 0.011178
 -0.003758
 0.010279
 -0.009157
 0.004297
 -0.006932
 -0.003108
 -0.001724
 -0.004482
 0.001978
 -0.002423
 0.001594
 0.002535
 -0.003733
 0.003033
 -0.006319
 -0.001137
 -0.005439
 -0.006907
 0.001701
 -0.010563
 0.008676
 -0.006482
 0.011005
 0.000380
 0.007683
 0.008029
 -0.000397
 0.009387
 -0.004970
 0.005438
 -0.005949
 0.000096
 -0.001532
 -0.003338
 0.001924
 -0.000545
 0.001309
 0.002706
 -0.002524
 0.005020
 -0.007784
 0.001401
 -0.007161
 -0.005016
 -0.002744
 -0.009433
 0.005153
 -0.009478
 0.009545
 -0.002796
 0.008162
 0.003376
 0.003229
 0.007430
 -0.002833
 0.005277
 -0.003310
 0.000764
 -0.001272
 -0.001653
 0.002668
 -0.000952
 0.002694
 0.003922
 -0.001512
 0.005771
 -0.006256
 0.004504
 -0.009190
 -0.001736
 -0.005221
